    time (ps)       MSD(A2) @ 35K       MSD(A2) @ 50K       MSD(A2) @ 60K       MSD(A2) @ 75K       MSD(A2) @ 100K     MSD(A2) @ 150K        
    0.2000          0.01751199          0.01041917          0.00761184          0.00550858          0.00547640          0.00360826 
    0.4000          0.06999030          0.04137834          0.03069739          0.02209240          0.02189375          0.01446756 
    0.6000          0.15772189          0.09239190          0.06965214          0.04996673          0.04921443          0.03259463 
    0.8000          0.28047890          0.16318780          0.12444719          0.08929508          0.08740525          0.05786283 
    1.0000          0.43772244          0.25385741          0.19518367          0.14016061          0.13622558          0.09019695 
    1.2000          0.62928843          0.36415625          0.28189479          0.20225830          0.19550582          0.12941015 
    1.4000          0.85576071          0.49463728          0.38429251          0.27463126          0.26470871          0.17542874 
    1.6000          1.11601100          0.64462883          0.50119188          0.35831382          0.34392612          0.22806080 
    1.8000          1.41012847          0.81318059          0.63297632          0.45368419          0.43257089          0.28732554 
    2.0000          1.73724868          0.99986710          0.77932088          0.55964542          0.52988701          0.35306848 
    2.2000          2.09813532          1.20443413          0.94024629          0.67675771          0.63616291          0.42530099 
    2.4000          2.49149674          1.42841175          1.11559444          0.80478393          0.75166551          0.50367154 
    2.6000          2.91886114          1.67009517          1.30551376          0.94375291          0.87606747          0.58803040 
    2.8000          3.37627754          1.92840399          1.51131814          1.09451881          1.00939853          0.67762655 
    3.0000          3.86427877          2.20462999          1.73111221          1.25687166          1.15167058          0.77248506 
    3.2000          4.38436282          2.49762052          1.96311978          1.42997142          1.30240339          0.87301016 
    3.4000          4.93632063          2.80661670          2.20903636          1.61455935          1.46060702          0.97922399 
    3.6000          5.51735142          3.12929178          2.46811301          1.81055669          1.62711686          1.09094332 
    3.8000          6.12921122          3.46633970          2.73878008          2.01771164          1.80277004          1.20823382 
    4.0000          6.76975182          3.81865004          3.02377062          2.23513025          1.98695264          1.33169207 
    4.2000          7.43880291          4.18666983          3.32103459          2.46319316          2.17986555          1.46026986 
    4.4000          8.13821371          4.57215892          3.63282914          2.70334210          2.38207902          1.59436577 
    4.6000          8.86938297          4.97558249          3.95902395          2.95339431          2.59409010          1.73275430 
    4.8000          9.62828397          5.39857291          4.29817243          3.21444237          2.81402408          1.87411425 
    5.0000         10.41613275          5.83708199          4.65144522          3.48621896          3.04266502          2.01839145 
    5.2000         11.23267978          6.28629254          5.01914558          3.76898364          3.27987180          2.16628083 
    5.4000         12.08210124          6.74923215          5.40333780          4.06315991          3.52528433          2.31700170 
    5.6000         12.96405830          7.22566183          5.80110617          4.36708265          3.77756087          2.47123748 
    5.8000         13.87631201          7.71964134          6.21097242          4.67901230          4.03685378          2.62854268 
    6.0000         14.82062176          8.23010166          6.63147400          5.00048644          4.30210636          2.79031463 
    6.2000         15.80072283          8.75415417          7.06384964          5.33036423          4.57206139          2.95632543 
    6.4000         16.82052642          9.29594441          7.50911379          5.66971890          4.84695316          3.12584230 
    6.6000         17.87154028          9.85301058          7.96622222          6.01795828          5.12819162          3.29970866 
    6.8000         18.95835016         10.42543217          8.43712462          6.37560731          5.41324275          3.47981859 
    7.0000         20.08206331         11.01675586          8.92095834          6.74365766          5.70094935          3.66519474 
    7.2000         21.24142563         11.62827042          9.41808265          7.12318899          5.99319598          3.85559650 
    7.4000         22.44022660         12.25958542          9.92847789          7.51389154          6.28936799          4.05023204 
    7.6000         23.66637561         12.91325412         10.45317349          7.91511661          6.59047993          4.24890844 
    7.8000         24.92907961         13.58564457         10.99110315          8.32627179          6.89682610          4.45174000 
    8.0000         26.22968133         14.28285330         11.54516421          8.74845998          7.21045235          4.65719672 
    8.2000         27.56852121         15.00020479         12.11544085          9.18059791          7.52922792          4.86681079 
    8.4000         28.93793771         15.73182372         12.70106004          9.62042635          7.85418720          5.08072824 
    8.6000         30.34392675         16.48094349         13.29884565         10.06993077          8.18653940          5.29782304 
    8.8000         31.78140419         17.24511672         13.91287674         10.52798585          8.52771960          5.51697744 
    9.0000         33.25417088         18.02652578         14.54184379         10.98948742          8.87588218          5.74043357 
    9.2000         34.75657910         18.82613503         15.18334589         11.45564863          9.23122984          5.96791266 
    9.4000         36.29190828         19.63541873         15.83628907         11.92566755          9.59271736          6.19761722 
    9.6000         37.85745434         20.45997343         16.50279941         12.40072164          9.96018001          6.42992734 
    9.8000         39.45620597         21.29769086         17.17911261         12.87878278         10.33096961          6.66513875 
   10.0000         41.07449647         22.15349583         17.86587118         13.35906420         10.70471005          6.90110058 
   10.2000         42.72172134         23.01795865         18.56094057         13.83727582         11.08205192          7.14024500 
   10.4000         44.39044063         23.89524732         19.26221648         14.31497131         11.45909877          7.38151970 
   10.6000         46.08266596         24.79007703         19.97431624         14.79394005         11.83629774          7.62515340 
   10.8000         47.80266871         25.69611727         20.69723859         15.27228114         12.21782031          7.87054236 
   11.0000         49.55471558         26.62106699         21.43117056         15.75192289         12.60344973          8.11621643 
   11.2000         51.33205251         27.56581617         22.18533687         16.23555980         12.99256643          8.36208060 
   11.4000         53.13471689         28.52855866         22.95396758         16.72376916         13.38703000          8.60853706 
   11.6000         54.96441124         29.51069965         23.73354026         17.21559287         13.78535885          8.85671720 
   11.8000         56.81790851         30.51644383         24.52593726         17.71186405         14.18946730          9.10824311 
   12.0000         58.68530252         31.54096777         25.32795327         18.21512639         14.59489478          9.36285825 
   12.2000         60.56518172         32.58323337         26.13912211         18.73125174         15.00327545          9.62078333 
   12.4000         62.47299073         33.64117815         26.96237706         19.25519466         15.41265204          9.88174341 
   12.6000         64.40740038         34.71014243         27.79947000         19.78981313         15.82484936         10.14594910 
   12.8000         66.36552855         35.78892193         28.65504456         20.34047588         16.24184080         10.41466261 
   13.0000         68.34801658         36.87340144         29.52671795         20.90345094         16.66490735         10.68606215 
   13.2000         70.36521783         37.96504572         30.41448585         21.47291122         17.09278707         10.96062949 
   13.4000         72.41265904         39.06767832         31.31490438         22.04695078         17.52592817         11.23851509 
   13.6000         74.46911217         40.18529754         32.22930639         22.62599363         17.96342373         11.51875764 
   13.8000         76.54259669         41.32047498         33.15685165         23.20704119         18.40472411         11.80172267 
   14.0000         78.63769976         42.46857157         34.09464127         23.78926134         18.84678557         12.08855126 
   14.2000         80.76128366         43.62266852         35.05100759         24.37195504         19.29168556         12.37901173 
   14.4000         82.91336237         44.78925718         36.02100267         24.95156400         19.74212704         12.67454600 
   14.6000         85.09739283         45.96353785         37.00624913         25.53354022         20.19608442         12.97348908 
   14.8000         87.30660509         47.14901083         38.00342565         26.11928296         20.65501796         13.27647717 
   15.0000         89.56048674         48.34558738         39.01353117         26.70917236         21.11542574         13.58061613 
   15.2000         91.83623677         49.55428243         40.03331839         27.30308265         21.58048512         13.88835509 
   15.4000         94.14260455         50.78035305         41.06052443         27.90219207         22.04891882         14.20188887 
   15.6000         96.47145596         52.02639036         42.09637688         28.50206661         22.51808011         14.51734135 
   15.8000         98.81097643         53.29291777         43.13821175         29.10627595         22.99267117         14.83410526 
   16.0000        101.17879109         54.58176727         44.19158576         29.71724616         23.47066880         15.15344608 
   16.2000        103.57233465         55.88764028         45.24729422         30.33922125         23.94809677         15.47132688 
   16.4000        105.98017441         57.21180009         46.30977128         30.97111832         24.42520961         15.79067916 
   16.6000        108.39581199         58.54944769         47.38502466         31.61089527         24.90117040         16.10853167 
   16.8000        110.83312496         59.90313580         48.46910920         32.25435300         25.37735901         16.42446687 
   17.0000        113.27830487         61.28273632         49.56032893         32.90634224         25.85896496         16.74175984 
   17.2000        115.72711901         62.67970753         50.65545332         33.55688933         26.34135729         17.06234793 
   17.4000        118.17363716         64.09186788         51.76702018         34.21355594         26.82586082         17.38446633 
   17.6000        120.63657074         65.52364009         52.90185338         34.87754938         27.31133748         17.71077206 
   17.8000        123.14128891         66.97142328         54.05163706         35.54872930         27.79700649         18.04125239 
   18.0000        125.68828298         68.43849673         55.21546902         36.22754622         28.28322055         18.37752980 
   18.2000        128.27068575         69.92417907         56.39539211         36.92228261         28.77172477         18.71749726 
   18.4000        130.88805440         71.43623223         57.58113021         37.63219538         29.26112976         19.06152495 
   18.6000        133.55307678         72.97612269         58.77440400         38.35791547         29.75490453         19.40765495 
   18.8000        136.25979449         74.53769979         59.98556825         39.09483172         30.25082235         19.75619456 
   19.0000        139.00611688         76.11454253         61.20624432         39.84579025         30.75034821         20.10568628 
   19.2000        141.77992442         77.69761197         62.44372937         40.61153673         31.25578633         20.45191699 
   19.4000        144.57302036         79.28664687         63.69101786         41.39069008         31.75874675         20.79606679 
   19.6000        147.40400349         80.88321517         64.94318088         42.18338901         32.25951665         21.14126660 
   19.8000        150.24279345         82.47638845         66.20548083         42.98827082         32.75531991         21.48339994 
   20.0000        153.09158853         84.06580112         67.48109880         43.80559155         33.25197335         21.82328848 
   20.2000        155.96006164         85.65157339         68.76775023         44.63056969         33.75152218         22.16182265 
   20.4000        158.83838517         87.22891891         70.06406411         45.45500206         34.24667290         22.49675759 
   20.6000        161.72039594         88.80586985         71.37181065         46.27634507         34.73406496         22.82856912 
   20.8000        164.59492383         90.38664018         72.69447553         47.09693319         35.21312230         23.15956913 
   21.0000        167.45849389         91.98367176         74.02763198         47.92383706         35.68674211         23.49290230 
   21.2000        170.34408639         93.60143560         75.35906592         48.75554721         36.15244983         23.82821823 
   21.4000        173.26399964         95.24333423         76.69868346         49.58268102         36.61655778         24.16164831 
   21.6000        176.21044492         96.90975838         78.04421405         50.41663198         37.07556513         24.49647406 
   21.8000        179.19353385         98.59838327         79.40408569         51.25908657         37.53763104         24.83472468 
   22.0000        182.20998008        100.31597317         80.77742256         52.10858379         38.00240875         25.17843346 
   22.2000        185.24477653        102.03180457         82.16867636         52.96374866         38.47113269         25.52768288 
   22.4000        188.30711525        103.75186702         83.57377868         53.82526293         38.94430405         25.88278973 
   22.6000        191.40781398        105.47805965         84.98532192         54.69173637         39.42087383         26.24316271 
   22.8000        194.51527299        107.21919510         86.40219244         55.56519709         39.89875950         26.61340987 
   23.0000        197.64982186        108.97395884         87.82699261         56.44842973         40.37931703         26.99227356 
   23.2000        200.83433547        110.74130647         89.24872380         57.34543115         40.85949641         27.37933701 
   23.4000        204.06510018        112.52557717         90.68029481         58.25856304         41.34327216         27.77457919 
   23.6000        207.32024073        114.32787634         92.11454468         59.18987431         41.83025388         28.17657277 
   23.8000        210.61283350        116.14532639         93.55472496         60.12823773         42.31648694         28.58578903 
   24.0000        213.91646361        117.97760906         95.00156469         61.07022672         42.80532872         29.00006559 
   24.2000        217.23229440        119.81788885         96.45720849         62.00853078         43.29839590         29.41579775 
   24.4000        220.57096145        121.66418960         97.92364814         62.94388405         43.79433094         29.83451292 
   24.6000        223.90529168        123.51896346         99.39586487         63.87681101         44.29964889         30.25198966 
   24.8000        227.25932931        125.37081449        100.86672316         64.80761362         44.82419515         30.67209351 
   25.0000        230.64515489        127.21769350        102.34883463         65.73231806         45.35979321         31.09064938 
   25.2000        234.07091156        129.07200845        103.84203975         66.65013764         45.90286108         31.50726094 
   25.4000        237.51955091        130.91830423        105.32763622         67.56486147         46.45124835         31.92169858 
   25.6000        240.96396654        132.76834156        106.80509532         68.47783700         47.00605430         32.33435771 
   25.8000        244.41446894        134.61610538        108.28838979         69.38554781         47.56550594         32.74615307 
   26.0000        247.88593992        136.46107055        109.77092898         70.28953058         48.12408063         33.15836832 
   26.2000        251.37664213        138.30229880        111.24922088         71.19325578         48.68692821         33.56986885 
   26.4000        254.91000882        140.13769215        112.73056223         72.10255186         49.24823136         33.98127748 
   26.6000        258.45789108        141.98340492        114.22593367         73.02072948         49.80043298         34.39556834 
   26.8000        262.00987629        143.82872722        115.72050465         73.95332696         50.34878392         34.80918237 
   27.0000        265.58148393        145.68645415        117.21844595         74.89226120         50.89280480         35.22412277 
   27.2000        269.19383162        147.55826112        118.72404465         75.84516941         51.43223051         35.63803482 
   27.4000        272.84661794        149.44479901        120.23611493         76.81075807         51.96701998         36.05427876 
   27.6000        276.51830886        151.33927109        121.75757492         77.78688392         52.49645624         36.47250103 
   27.8000        280.22890025        153.24308347        123.28149286         78.76396452         53.02016247         36.88823839 
   28.0000        283.96574365        155.14909911        124.81077368         79.74690342         53.54228866         37.30175634 
   28.2000        287.68688918        157.05381905        126.33505600         80.73331933         54.06440877         37.71459796 
   28.4000        291.37905560        158.95532007        127.85872039         81.72587624         54.60214745         38.12682516 
   28.6000        295.06624076        160.85115454        129.39417766         82.73959327         55.15713699         38.53810026 
   28.8000        298.78170989        162.76429136        130.95225127         83.76378029         55.72437846         38.95374895 
   29.0000        302.51105431        164.68952105        132.52798478         84.79783849         56.30074274         39.37724375 
   29.2000        306.23992768        166.63096161        134.12229417         85.83917298         56.88130298         39.80544726 
   29.4000        309.97609996        168.58519707        135.73635568         86.88388572         57.46703156         40.23552723 
   29.6000        313.73774584        170.56971435        137.37238927         87.93045197         58.06299970         40.66595069 
   29.8000        317.53737131        172.57230427        139.02040704         88.97140172         58.67182466         41.10345582 
   30.0000        321.36270284        174.57730331        140.68409534         90.00021524         59.29436170         41.54475607 
