   log t (ps)      log MSD(A2)@ 5 K     log MSD(A2)@ 10 K   log MSD(A2)@ 20 K   log MSD(A2)@ 30 K   log MSD(A2)@ 60 K   log MSD(A2)@ 100 K  log MSD(A2)@ 300 K  log MSD(A2)@ 500 K    
   -0.6990         -1.25229856         -1.54553484         -1.98216698         -2.25896051         -2.63024607         -2.69863330         -2.92527530         -3.19491140 
   -0.3979         -0.65056908         -0.94442309         -1.38322692         -1.65575705         -2.03054323         -2.09471724         -2.31985979         -2.59318773 
   -0.2218         -0.30072531         -0.59188492         -1.03436609         -1.30131908         -1.68126008         -1.74154319         -1.96507264         -2.24227395 
   -0.0969         -0.05320152         -0.34142662         -0.78731231         -1.04917246         -1.43379938         -1.49131015         -1.71406888         -1.99424661 
    0.0000          0.13893121         -0.14751861         -0.59541015         -0.85337401         -1.24182594         -1.29777455         -1.52076758         -1.80332302 
    0.0792          0.29486652          0.01144899         -0.43871223         -0.69409365         -1.08549857         -1.14006323         -1.36411444         -1.64779096 
    0.1461          0.42605397          0.14592106         -0.30571315         -0.56125003         -0.95367869         -1.00678301         -1.23368268         -1.51693566 
    0.2041          0.53986155          0.26224606         -0.19069028         -0.44573644         -0.83939914         -0.89175476         -1.12139905         -1.40484579 
    0.2553          0.64023897          0.36496150         -0.08981300         -0.34324636         -0.73806442         -0.79125337         -1.02355035         -1.30674083 
    0.3010          0.73055869          0.45655001         -0.00005772         -0.25208705         -0.64720021         -0.70190258         -0.93695274         -1.22011331 
    0.3424          0.81199500          0.53915456          0.08078305         -0.16956679         -0.56492253         -0.62149183         -0.85958748         -1.14254705 
    0.3802          0.88632731          0.61422239          0.15485341         -0.09432071         -0.49011303         -0.54867866         -0.79023840         -1.07222608 
    0.4150          0.95502799          0.68301751          0.22274122         -0.02514169         -0.42174608         -0.48215572         -0.72719503         -1.00761960 
    0.4472          1.01888295          0.74714643          0.28519802          0.03922323         -0.35799889         -0.42124274         -0.66939358         -0.94783889 
    0.4771          1.07830356          0.80650844          0.34333571          0.09929094         -0.29867166         -0.36507696         -0.61624429         -0.89234237 
    0.5051          1.13355874          0.86175793          0.39752645          0.15532736         -0.24341327         -0.31304893         -0.56679349         -0.84055128 
    0.5315          1.18559750          0.91370283          0.44818311          0.20805401         -0.19207620         -0.26485729         -0.52114779         -0.79191980 
    0.5563          1.23491604          0.96259953          0.49544606          0.25781213         -0.14423679         -0.22013433         -0.47884167         -0.74601250 
    0.5798          1.28149526          1.00875844          0.53987112          0.30485910         -0.09943920         -0.17847523         -0.43908646         -0.70257405 
    0.6021          1.32574427          1.05266654          0.58190986          0.34930284         -0.05751294         -0.13942034         -0.40163534         -0.66126518 
    0.6232          1.36816596          1.09465619          0.62186871          0.39149847         -0.01809122         -0.10262992         -0.36621751         -0.62202321 
    0.6435          1.40836952          1.13468427          0.66012132          0.43190101          0.01939479         -0.06788424         -0.33259076         -0.58507083 
    0.6628          1.44633284          1.17279375          0.69684393          0.47032143          0.05531428         -0.03504311         -0.30058043         -0.55017948 
    0.6812          1.48260003          1.20915757          0.73227897          0.50710564          0.08952167         -0.00403028         -0.27020012         -0.51688742 
    0.6990          1.51739284          1.24401413          0.76619579          0.54235466          0.12241408          0.02538443         -0.24155940         -0.48498976 
    0.7160          1.55087321          1.27756992          0.79839459          0.57622425          0.15421340          0.05328899         -0.21451764         -0.45465115 
    0.7324          1.58312168          1.31012508          0.82925437          0.60886391          0.18517550          0.07980399         -0.18898104         -0.42573231 
    0.7482          1.61416183          1.34177770          0.85887763          0.64019141          0.21529160          0.10509503         -0.16493592         -0.39808412 
    0.7634          1.64415515          1.37245852          0.88759712          0.67015419          0.24462605          0.12931726         -0.14219055         -0.37182199 
    0.7782          1.67327628          1.40207977          0.91540520          0.69901225          0.27332581          0.15256897         -0.12073426         -0.34691771 
    0.7924          1.70147718          1.43084535          0.94221419          0.72675689          0.30118190          0.17506096         -0.10031872         -0.32352593 
    0.8062          1.72901981          1.45871898          0.96829352          0.75356153          0.32809220          0.19667474         -0.08086733         -0.30147543 
    0.8195          1.75589067          1.48566866          0.99356895          0.77944917          0.35423648          0.21734362         -0.06254818         -0.28045339 
    0.8325          1.78193086          1.51177759          1.01809407          0.80452156          0.37952579          0.23727686         -0.04529099         -0.26057208 
    0.8451          1.80727006          1.53723447          1.04205373          0.82889552          0.40405534          0.25651268         -0.02898285         -0.24176725 
    0.8573          1.83195280          1.56208402          1.06551512          0.85267447          0.42782704          0.27521555         -0.01359362         -0.22388213 
    0.8692          1.85591989          1.58638208          1.08847578          0.87586492          0.45077010          0.29342214          0.00077389         -0.20686069 
    0.8808          1.87922299          1.61010007          1.11103570          0.89845732          0.47289268          0.31118060          0.01416800         -0.19065888 
    0.8921          1.90169829          1.63316721          1.13308025          0.92045058          0.49409511          0.32844065          0.02668977         -0.17518275 
    0.9031          1.92362225          1.65565010          1.15481498          0.94193161          0.51451325          0.34523192          0.03847858         -0.16030557 
    0.9138          1.94502248          1.67762147          1.17609719          0.96287097          0.53416425          0.36144036          0.04958203         -0.14630450 
    0.9243          1.96593685          1.69899122          1.19677907          0.98319432          0.55327730          0.37717219          0.06007970         -0.13296076 
    0.9345          1.98647027          1.71984891          1.21698207          1.00302648          0.57182842          0.39234245          0.07002206         -0.12029762 
    0.9445          2.00668094          1.74017309          1.23666614          1.02234529          0.58995401          0.40696450          0.07929663         -0.10829209 
    0.9542          2.02658189          1.76001346          1.25591203          1.04097744          0.60763960          0.42111956          0.08792166         -0.09675783 
    0.9638          2.04589196          1.77943318          1.27476117          1.05901968          0.62498594          0.43489079          0.09599401         -0.08574172 
    0.9731          2.06485343          1.79827972          1.29304017          1.07648270          0.64200973          0.44832226          0.10354904         -0.07520839 
    0.9823          2.08344893          1.81653723          1.31090507          1.09344696          0.65861234          0.46131943          0.11071290         -0.06518546 
    0.9912          2.10169410          1.83448784          1.32833252          1.10987482          0.67481218          0.47386597          0.11756308         -0.05568468 
    1.0000          2.11951154          1.85203852          1.34544227          1.12577604          0.69069668          0.48612051          0.12410819         -0.04677218 
    1.0086          2.13696215          1.86932147          1.36206681          1.14105060          0.70627174          0.49804679          0.13043025         -0.03830647 
    1.0170          2.15408359          1.88629535          1.37831153          1.15579048          0.72158330          0.50971896          0.13662095         -0.03020084 
    1.0253          2.17085984          1.90293784          1.39427788          1.17008385          0.73661403          0.52111069          0.14266096         -0.02240745 
    1.0334          2.18733094          1.91917208          1.40986751          1.18390391          0.75149703          0.53218588          0.14869541         -0.01500799 
    1.0414          2.20350916          1.93508535          1.42522546          1.19733358          0.76604849          0.54301686          0.15465263         -0.00800934 
    1.0492          2.21935966          1.95062705          1.44037086          1.21046727          0.78036304          0.55358155          0.16067456         -0.00142108 
    1.0569          2.23495423          1.96581206          1.45527983          1.22333416          0.79450545          0.56398987          0.16658879          0.00480532 
    1.0645          2.25017970          1.98061738          1.46997951          1.23592198          0.80840061          0.57432611          0.17250904          0.01081375 
    1.0719          2.26502476          1.99512773          1.48453392          1.24826427          0.82204327          0.58459378          0.17852119          0.01651383 
    1.0792          2.27963628          2.00933710          1.49887501          1.26043219          0.83538877          0.59486286          0.18469743          0.02185043 
    1.0864          2.29395886          2.02332328          1.51299418          1.27256680          0.84841894          0.60500390          0.19107304          0.02680159 
    1.0934          2.30801898          2.03707780          1.52687120          1.28454791          0.86111424          0.61506871          0.19753792          0.03141500 
    1.1004          2.32192901          2.05052975          1.54045640          1.29644169          0.87345457          0.62508176          0.20413646          0.03576696 
    1.1072          2.33552316          2.06376717          1.55374862          1.30836111          0.88551448          0.63521155          0.21083052          0.03990405 
    1.1139          2.34879260          2.07683099          1.56671320          1.32021799          0.89733616          0.64533560          0.21764455          0.04378379 
    1.1206          2.36184743          2.08977247          1.57938393          1.33189093          0.90884445          0.65540879          0.22440048          0.04751035 
    1.1271          2.37469620          2.10246351          1.59181760          1.34334853          0.91997355          0.66540060          0.23109836          0.05097204 
    1.1335          2.38741142          2.11495665          1.60406719          1.35460766          0.93073656          0.67522114          0.23780094          0.05409009 
    1.1399          2.39990621          2.12726232          1.61616531          1.36561977          0.94115818          0.68485090          0.24442739          0.05682292 
    1.1461          2.41220760          2.13939797          1.62806765          1.37638096          0.95128655          0.69422575          0.25095189          0.05924618 
    1.1523          2.42437406          2.15129674          1.63971223          1.38689037          0.96106704          0.70341732          0.25748325          0.06136781 
    1.1584          2.43639504          2.16300805          1.65117386          1.39709777          0.97049368          0.71242153          0.26401808          0.06322497 
    1.1644          2.44823937          2.17457807          1.66241345          1.40711103          0.97970067          0.72116815          0.27055449          0.06477170 
    1.1703          2.45997342          2.18604504          1.67347259          1.41696125          0.98882669          0.72958736          0.27697020          0.06582750 
    1.1761          2.47156657          2.19742361          1.68435684          1.42666043          0.99790536          0.73774348          0.28326773          0.06646311 
    1.1818          2.48303600          2.20865194          1.69508119          1.43621168          1.00696370          0.74556193          0.28960719          0.06663110 
    1.1875          2.49435163          2.21967069          1.70569572          1.44563832          1.01598478          0.75310032          0.29604122          0.06617853 
    1.1931          2.50548971          2.23052925          1.71622370          1.45487635          1.02497325          0.76039648          0.30258968          0.06532305 
    1.1987          2.51642511          2.24127596          1.72666950          1.46398664          1.03389263          0.76740801          0.30914389          0.06401067 
    1.2041          2.52724116          2.25195153          1.73704759          1.47300856          1.04267980          0.77426162          0.31583215          0.06227237 
    1.2095          2.53788172          2.26248007          1.74731577          1.48200443          1.05147324          0.78092034          0.32257119          0.06012395 
    1.2148          2.54837706          2.27282711          1.75748561          1.49095689          1.06021468          0.78734176          0.32935068          0.05772472 
    1.2201          2.55881634          2.28306560          1.76752280          1.49983680          1.06884876          0.79352506          0.33616637          0.05511634 
    1.2253          2.56909396          2.29319163          1.77744956          1.50858833          1.07729231          0.79941406          0.34313310          0.05229772 
    1.2304          2.57916807          2.30319556          1.78733815          1.51727961          1.08565242          0.80507589          0.35019583          0.04940478 
    1.2355          2.58906666          2.31305778          1.79712696          1.52578170          1.09394634          0.81063805          0.35738995          0.04645816 
    1.2405          2.59885280          2.32277186          1.80680293          1.53419821          1.10209150          0.81603536          0.36453197          0.04350042 
    1.2455          2.60857547          2.33242368          1.81639802          1.54254596          1.11021848          0.82135020          0.37162455          0.04075126 
    1.2504          2.61821850          2.34200095          1.82588953          1.55082408          1.11832376          0.82654004          0.37867160          0.03822035 
    1.2553          2.62780817          2.35142325          1.83530046          1.55903892          1.12639713          0.83162445          0.38569724          0.03595448 
    1.2601          2.63733806          2.36074998          1.84462738          1.56728854          1.13443325          0.83671066          0.39259100          0.03388842 
    1.2648          2.64672695          2.36999619          1.85391854          1.57555955          1.14239902          0.84182904          0.39937441          0.03202302 
    1.2695          2.65596911          2.37916612          1.86318079          1.58385500          1.15033694          0.84699497          0.40614743          0.03048915 
    1.2742          2.66512497          2.38825836          1.87237599          1.59211935          1.15819820          0.85213674          0.41281715          0.02929556 
    1.2788          2.67417956          2.39729131          1.88146764          1.60038244          1.16590632          0.85729773          0.41936630          0.02837127 
    1.2833          2.68316907          2.40627098          1.89040767          1.60864942          1.17339937          0.86251841          0.42571178          0.02770270 
    1.2878          2.69208916          2.41521922          1.89920005          1.61690267          1.18060758          0.86772968          0.43183666          0.02732709 
    1.2923          2.70094013          2.42411638          1.90785841          1.62514147          1.18756367          0.87303140          0.43780086          0.02727722 
    1.2967          2.70965478          2.43293671          1.91632964          1.63334998          1.19426454          0.87838665          0.44359068          0.02751981 
    1.3010          2.71828383          2.44168007          1.92461936          1.64152955          1.20074886          0.88370770          0.44914904          0.02809971 
    1.3054          2.72683696          2.45032283          1.93273535          1.64963243          1.20708918          0.88895158          0.45453086          0.02902084 
    1.3096          2.73530016          2.45885521          1.94066049          1.65758168          1.21325258          0.89406855          0.45982548          0.03016967 
    1.3139          2.74364437          2.46729048          1.94844167          1.66535905          1.21934496          0.89900849          0.46503673          0.03158015 
    1.3181          2.75186785          2.47564411          1.95610424          1.67299263          1.22542060          0.90379946          0.47020972          0.03316917 
    1.3222          2.75999054          2.48384146          1.96371074          1.68055158          1.23146540          0.90837584          0.47534123          0.03495771 
    1.3263          2.76810671          2.49195616          1.97128251          1.68802404          1.23748072          0.91273061          0.48033869          0.03693268 
    1.3304          2.77617227          2.50000024          1.97883459          1.69533001          1.24352223          0.91688673          0.48522602          0.03908156 
    1.3345          2.78417276          2.50796431          1.98636751          1.70257383          1.24956210          0.92085771          0.48995761          0.04148846 
    1.3385          2.79206571          2.51589957          1.99386979          1.70977086          1.25564280          0.92471603          0.49447399          0.04415791 
    1.3424          2.79986019          2.52376147          2.00137009          1.71690927          1.26177968          0.92859324          0.49884672          0.04695439 
    1.3464          2.80758788          2.53151899          2.00873557          1.72397872          1.26796702          0.93243394          0.50313033          0.04997013 
    1.3502          2.81527115          2.53917696          2.01599592          1.73098616          1.27427823          0.93624993          0.50729123          0.05311799 
    1.3541          2.82285308          2.54676511          2.02316213          1.73792171          1.28066529          0.94011079          0.51123816          0.05654487 
    1.3579          2.83034267          2.55428471          2.03027254          1.74480286          1.28708113          0.94408418          0.51505542          0.06019402 
    1.3617          2.83777043          2.56169886          2.03732273          1.75165187          1.29347886          0.94812305          0.51873858          0.06407374 
